x,y,temperature
-11881324.618072432,4186605.8081787364,38.21666666666667
-11881317.938902983,4186606.489051683,38.21666666666667
-11881311.074201051,4186607.6238400205,38.11666666666667
-11881296.231602278,4186610.801247986,38.01111111111111
-11881288.81030289,4186612.162994535,38.01111111111111
-11881281.017938536,4186613.7516990546,37.91111111111111
-11881273.411106667,4186615.5673616426,37.91111111111111
-11881265.61874231,4186617.8369402946,37.71111111111111
-11881257.64084547,4186620.560435292,37.71111111111111
-11881249.477416147,4186623.2839309587,37.71111111111111
-11881241.499519305,4186626.2343853535,37.71111111111111
-11881233.521622464,4186629.4117986574,37.71111111111111
-11881225.543725625,4186632.8161710678,37.71111111111111
-11881217.75136127,4186636.2205445236,37.71111111111111
-11881209.958996914,4186639.851877363,37.71111111111111
-11881202.537697528,4186643.483211394,37.71111111111111
-11881195.11639814,4186647.1145466156,37.71111111111111
-11881187.880631238,4186650.5189244677,37.41111111111112
-11881180.644864338,4186654.150261996,37.41111111111112
-11881173.59462992,4186658.008559426,37.41111111111112
-11881166.544395505,4186661.866858199,37.41111111111112
-11881159.67969357,4186665.9521171884,37.41111111111112
-11881146.135822194,4186674.3495987337,37.41111111111112
-11881139.827717714,4186678.6618214627,37.3111111111111
-11881133.70514572,4186683.201005095,37.3111111111111
-11881127.582573727,4186687.7401905884,37.111111111111114
-11881122.016599186,4186692.2793779434,37.111111111111114
-11881116.450624647,4186696.818567158,37.01111111111111
-11881091.218206733,4186719.968461095,37.211111111111116
-11881086.579894619,4186724.734621737,36.91111111111111
-11881081.756050017,4186729.72774461,36.91111111111111
-11881077.1177379,4186734.947830022,36.91111111111111
-11881072.664958268,4186740.3948782915,36.91111111111111
-11881068.397711122,4186745.3880082252,36.91111111111111
-11881064.315996459,4186750.3811404104,36.91111111111111
-11881060.605346765,4186755.374274847,36.71111111111111
-11881057.080229558,4186759.9134899247,36.71111111111111
-11881053.369579865,4186764.4527068646,36.81111111111111
-11881049.844462655,4186768.7649646793,36.81111111111111
-11881046.504877932,4186772.623302042,36.71111111111111
-11881043.165293207,4186776.708601892,36.71111111111111
-11881040.196773455,4186780.339980802,36.611111111111114
-11881037.970383639,4186783.2904770435,36.611111111111114
-11881019.231602687,4186793.503739333,38.2
-11881016.634147903,4186796.6812006333,38.3
-11881010.51157591,4186805.986628257,38.3
-11881007.728588639,4186811.2067496157,38.2
-11881004.5745364,4186817.3347213077,38.2
-11881001.420484161,4186823.008772194,37.900000000000006
-11880997.895366952,4186828.682825989,37.900000000000006
-11880994.370249743,4186834.3568826914,38.099999999999994
-11880990.103002597,4186839.803979859,38.099999999999994
-11880990.103002597,4186839.803979859,37.900000000000006
-11880981.011910848,4186851.152107568,37.900000000000006
-11880976.559131216,4186856.8261757824,38.099999999999994
-11880972.29188407,4186862.7272098092,38.099999999999994
-11880968.024636922,4186868.628246982,38.0
-11880964.128454745,4186874.5292872987,38.0
-11880960.417805051,4186880.8842573115,37.900000000000006
-11880956.521622874,4186887.4661943824,37.900000000000006
-11880952.439908212,4186894.0481353668,37.900000000000006
-11880948.358193548,4186901.0840076418,37.900000000000006
-11880944.647543857,4186908.346848227,37.800000000000004
-11880941.493491618,4186916.063621569,37.800000000000004
-11880938.153906893,4186923.5534361317,37.800000000000004
-11880935.185387138,4186931.497184385,37.800000000000004
-11880932.587932354,4186938.9870093875,37.7
-11880930.361542538,4186946.930768713,37.7
-11880928.135152722,4186954.8745337366,37.59444444444445
-11880926.650892844,4186962.8183044605,37.59444444444445
-11880925.166632967,4186970.7620808827,37.49444444444444
-11880923.867905574,4186978.705863003,37.49444444444444
-11880921.827048244,4186994.1395131308,37.394444444444446
-11880920.89938582,4187002.083312022,37.394444444444446
-11880920.15725588,4187010.027116612,37.294444444444444
-11880919.786190912,4187018.1978929946,37.294444444444444
-11880918.85852849,4187026.1417091447,36.99444444444445
-11880918.11639855,4187034.3124974174,36.99444444444445
-11880914.962346312,4187074.939561958,37.09444444444444
-11880914.591281341,4187083.1103862384,37.09444444444444
-11880914.034683887,4187091.2812165483,37.09444444444444
-11880913.478086432,4187099.4520528885,37.09444444444444
-11880912.92148898,4187107.3959273314,36.69444444444444
-11880912.179359041,4187115.566775562,36.69444444444444
-11880911.808294073,4187123.510661566,36.69444444444444
-11880911.066164134,4187131.9084901107,36.69444444444444
-11880910.50956668,4187139.85238784,36.59444444444445
-11880909.952969227,4187147.796291268,36.59444444444445
-11880909.396371773,4187155.9671693104,36.49444444444444
-11880904.201462202,4187164.365022471,36.49444444444444
-11880902.902734809,4187172.762882,36.294444444444444
-11880901.418474931,4187181.1607478997,36.294444444444444
-11880898.449955177,4187189.5586201665,36.394444444444446
-11880896.409097847,4187197.9564988045,36.394444444444446
-11880892.698448151,4187206.8083237223,36.394444444444446
-11880887.503538582,4187223.831083838,36.394444444444446
-11880885.46268125,4187232.0020179884,36.19444444444444
-11880883.978421373,4187240.172958171,36.19444444444444
-11880882.67969398,4187248.570875196,36.19444444444444
-11880881.75203156,4187256.9687985894,36.19444444444444
-11880881.00990162,4187265.139757195,36.19444444444444
-11880880.63883665,4187273.7646644856,36.19444444444444
-11880878.969044289,4187299.639426671,35.894444444444446
-11880878.412446832,4187308.037388797,35.894444444444446
-11880877.85584938,4187316.208385089,35.99444444444445
-11880877.113719441,4187325.060304542,35.99444444444445
-11880876.742654473,4187333.458285949,36.19444444444444
-11880876.557121987,4187342.083246459,36.19444444444444
-11880876.186057018,4187350.7082136855,36.19444444444444
-11880875.814992048,4187359.560160719,36.19444444444444
-11880875.629459564,4187368.1851415606,36.19444444444444
-11880875.258394593,4187376.8101291195,36.19444444444444
-11880875.072862111,4187385.435123398,36.18888888888889
-11880874.887329625,4187394.0601243945,36.18888888888889
-11880874.516264655,4187402.4581581363,36.388888888888886
-11880874.516264655,4187410.856198248,36.388888888888886
-11880874.330732172,4187419.0272704153,36.08888888888888
-11880874.145199686,4187427.4253230947,36.08888888888888
-11880873.959667202,4187435.8233821434,36.18888888888889
-11880873.774134718,4187443.9944727365,36.18888888888889
-11880873.774134718,4187460.336672015,36.18888888888889
-11880873.774134718,4187468.5077806977,36.18888888888889
-11880873.959667202,4187476.4519199226,36.18888888888889
-11880873.774134718,4187492.3402154706,36.18888888888889
-11880873.774134718,4187500.2843717933,36.18888888888889
-11880873.774134718,4187508.228533816,35.888888888888886
-11880873.588602234,4187515.9457252403,35.888888888888886
-11880873.588602234,4187515.9457252403,36.288888888888884
-11880873.588602234,4187531.3801242253,36.288888888888884
-11880873.403069748,4187539.324308559,35.888888888888886
-11880873.403069748,4187547.268498595,35.888888888888886
-11880873.403069748,4187554.9857172286,36.18888888888889
-11880873.03200478,4187562.702941242,36.18888888888889
-11880872.475407327,4187570.6471480504,36.08888888888888
-11880872.104342356,4187578.59136056,36.08888888888888
-11880871.733277388,4187586.9895342677,35.78888888888889
-11880871.176679933,4187595.1607364216,35.78888888888889
-11880870.620082477,4187602.8779884377,36.18888888888889
-11880870.063485024,4187611.049202316,36.18888888888889
-11880869.50688757,4187618.9934438146,36.18888888888889
-11880868.950290117,4187627.1646695887,36.18888888888889
-11880868.579225149,4187635.108922649,36.388888888888886
-11880868.393692661,4187642.8262025095,36.388888888888886
-11880868.208160179,4187650.3165086955,36.18888888888889
-11880868.208160179,4187657.806819947,36.18888888888889
-11880868.208160179,4187665.524115631,36.288888888888884
-11880867.651562724,4187680.9587231297,36.288888888888884
-11880867.46603024,4187688.9030147903,36.18888888888889
-11880867.280497756,4187696.620332146,36.18888888888889
-11880867.280497756,4187704.110674724,36.18888888888889
-11880867.280497756,4187711.828002681,36.18888888888889
-11880867.46603024,4187727.2626747317,35.98888888888889
-11880867.46603024,4187734.9800188267,36.388888888888886
-11880867.46603024,4187742.470387357,36.388888888888886
-11880867.46603024,4187749.960760954,36.18888888888889
-11880867.46603024,4187757.451139619,36.18888888888889
-11880867.651562724,4187764.487560558,35.98888888888889
-11880867.651562724,4187771.5239859675,35.98888888888889
-11880867.46603024,4187779.0143792205,35.98888888888889
-11880867.280497756,4187786.2777957004,35.98888888888889
-11880867.46603024,4187793.5412169453,36.18333333333333
-11880867.83709521,4187800.577660821,36.18333333333333
-11880868.208160179,4187807.614109167,36.18333333333333
-11880868.579225149,4187814.650561986,36.18333333333333
-11880868.950290117,4187821.6870192764,35.98333333333333
-11880869.321355086,4187828.7234810386,35.98333333333333
-11880869.692420054,4187835.7599472753,36.18333333333333
-11880870.249017509,4187842.7964179814,36.18333333333333
-11880870.99114745,4187849.83289316,36.083333333333336
-11880871.91880987,4187856.6423895266,36.083333333333336
-11880872.475407327,4187863.451890082,36.083333333333336
-11880873.03200478,4187876.616936364,36.083333333333336
-11880873.403069748,4187882.972481552,36.18333333333333
-11880873.588602234,4187889.555014342,36.18333333333333
-11880873.774134718,4187895.910566957,36.18333333333333
-11880873.959667202,4187902.4931074395,36.18333333333333
-11880873.959667202,4187909.302636196,36.38333333333333
-11880874.145199686,4187934.951898775,36.38333333333333
-11880874.330732172,4187941.3074774505,36.38333333333333
-11880874.330732172,4187947.4360746285,36.483333333333334
-11880874.145199686,4187953.5646752003,36.483333333333334
-11880874.145199686,4187959.4662937704,36.38333333333333
-11880874.330732172,4187965.5949009997,36.38333333333333
-11880874.330732172,4187971.7235116214,36.483333333333334
-11880874.330732172,4187977.6251398725,36.483333333333334
-11880874.330732172,4187983.5267712697,36.38333333333333
-11880874.145199686,4187989.4284058115,36.38333333333333
-11880873.959667202,4187995.5570296287,36.483333333333334
-11880873.959667202,4188001.912643094,36.483333333333334
-11880873.774134718,4188008.0412738207,36.483333333333334
-11880873.774134718,4188014.3968944554,36.483333333333334
-11880873.403069748,4188020.7525187368,36.28333333333333
-11880873.03200478,4188033.917752072,36.28333333333333
-11880872.846472295,4188040.50037461,36.583333333333336
-11880872.846472295,4188047.536975443,36.583333333333336
-11880872.846472295,4188054.3465934135,36.583333333333336
-11880872.660939809,4188060.929228097,36.583333333333336
-11880872.475407327,4188067.2848790935,36.483333333333334
-11880872.28987484,4188073.6405337374,36.483333333333334
-11880872.104342356,4188079.99619203,36.38333333333333
-11880872.28987484,4188086.124865982,36.38333333333333
-11880872.28987484,4188092.026555217,36.68333333333333
-11880872.28987484,4188097.701259371,36.68333333333333
-11880872.28987484,4188103.1489780955,36.583333333333336
-11880872.28987484,4188109.050676407,36.583333333333336
-11880872.475407327,4188114.9523778614,36.78333333333333
-11880872.660939809,4188121.081071166,36.78333333333333
-11880872.846472295,4188127.436756694,36.77777777777778
-11880872.846472295,4188133.5654569096,36.77777777777778
-11880872.846472295,4188139.467171433,36.77777777777778
-11880872.846472295,4188145.1418999042,36.77777777777778
-11880872.846472295,4188150.5896419743,36.67777777777778
-11880872.846472295,4188156.037386724,36.67777777777778
-11880872.846472295,4188161.712123689,36.77777777777778
-11880872.846472295,4188167.386863563,36.77777777777778
-11880872.846472295,4188172.834616579,36.87777777777777
-11880872.660939809,4188178.2823722744,36.87777777777777
-11880872.660939809,4188188.269931346,36.87777777777777
-11880872.660939809,4188193.0367240813,36.87777777777777
-11880872.475407327,4188198.2574994313,36.97777777777778
-11880872.475407327,4188203.705267636,36.97777777777778
-11880872.660939809,4188209.380029036,36.97777777777778
-11880872.660939809,4188214.827802716,36.97777777777778
-11880872.660939809,4188220.2755790763,36.77777777777778
-11880872.660939809,4188220.2755790763,36.77777777777778
-11880872.660939809,4188231.852112744,36.87777777777777
-11880872.660939809,4188238.434852974,36.87777777777777
-11880872.660939809,4188244.7906058747,37.27777777777778
-11880872.660939809,4188251.3733537975,37.27777777777778
-11880872.660939809,4188257.956105635,37.17777777777778
-11880872.660939809,4188264.765853034,37.17777777777778
-11880872.660939809,4188271.5756046227,37.37777777777777
-11880872.475407327,4188278.3853603993,37.37777777777777
-11880872.28987484,4188285.422112435,37.67777777777778
-11880872.104342356,4188292.0048845173,37.67777777777778
-11880871.91880987,4188298.814652861,37.67777777777778
-11880871.547744902,4188305.3974329075,37.67777777777778
-11880871.362212418,4188311.980216868,37.577777777777776
-11880870.99114745,4188318.5630047433,37.577777777777776
-11880870.99114745,4188325.145796535,37.67777777777778
-11880870.99114745,4188331.9555852637,37.67777777777778
-11880870.805614963,4188338.765378182,37.477777777777774
-11880870.620082477,4188345.1211886858,37.477777777777774
-11880870.063485024,4188351.9309897004,37.577777777777776
-11880869.135822602,4188365.3236105875,37.577777777777776
-11880868.764757631,4188372.133424033,37.577777777777776
-11880868.579225149,4188379.6242236593,37.577777777777776
-11880867.83709521,4188386.8880341984,37.67777777777778
-11880867.280497756,4188394.3788438085,37.67777777777778
-11880866.723900301,4188401.642664029,37.37777777777777
-11880865.425172908,4188417.3052925984,37.477777777777774
-11880865.425172908,4188425.023117725,37.477777777777774
-11880865.610705392,4188432.9679433284,37.27777777777778
-11880865.610705392,4188440.912774633,37.27777777777778
-11880865.796237877,4188448.8576116394,37.27777777777778
-11880865.981770363,4188457.0294499397,37.272222222222226
-11880866.167302847,4188465.2012942694,37.17222222222222
-11880865.981770363,4188473.1461487086,37.17222222222222
-11880866.167302847,4188481.091008848,36.87222222222223
-11880865.981770363,4188489.03587469,36.87222222222223
-11880865.796237877,4188496.9807462357,36.87222222222223
-11880865.796237877,4188504.6986269085,36.87222222222223
-11880865.610705392,4188512.4165129634,36.672222222222224
-11880865.610705392,4188520.1344044,36.672222222222224
-11880865.610705392,4188527.625304175,36.97222222222222
-11880865.796237877,4188535.3432062133,36.97222222222222
-11880865.981770363,4188543.0611136323,36.672222222222224
-11880866.167302847,4188550.7790264343,36.672222222222224
-11880866.167302847,4188558.2699469463,36.87222222222223
-11880866.538367815,4188565.533874707,36.87222222222223
-11880866.538367815,4188580.288742646,36.77222222222222
-11880866.538367815,4188587.552684856,36.77222222222222
-11880866.723900301,4188594.589633417,36.57222222222222
-11880866.909432786,4188601.1725893463,36.57222222222222
-11880866.909432786,4188607.528550509,36.87222222222223
-11880867.09496527,4188613.657516516,36.87222222222223
-11880867.09496527,4188613.657516516,36.77222222222222
-11880867.280497756,4188625.688459658,36.77222222222222
-11880867.280497756,4188631.817435719,36.672222222222224
-11880867.46603024,4188637.9464151734,36.672222222222224
-11880867.83709521,4188644.075398022,37.272222222222226
-11880868.022627693,4188650.2043842636,37.272222222222226
-11880868.208160179,4188656.560373579,37.272222222222226
-11880868.208160179,4188663.3703661817,37.272222222222226
-11880868.208160179,4188669.9533630135,37.17222222222222
-11880868.579225149,4188676.53636376,37.17222222222222
-11880868.950290117,4188683.1193684214,37.272222222222226
-11880868.950290117,4188690.156377733,37.272222222222226
-11880869.135822602,4188697.193391519,37.37222222222222
-11880868.950290117,4188704.230409778,37.37222222222222
-11880868.950290117,4188711.040431707,37.47222222222222
-11880869.321355086,4188717.623456887,37.47222222222222
-11880869.321355086,4188724.6604881347,37.672222222222224
-11880869.321355086,4188731.9245250816,37.672222222222224
-11880869.87795254,4188739.6425695596,37.57222222222222
-11880869.87795254,4188747.360619419,37.57222222222222
-11880869.87795254,4188755.07867466,37.37222222222222
-11880870.249017509,4188769.833795247,37.37222222222222
-11880870.434549995,4188777.0978618367,37.47222222222222
-11880870.805614963,4188784.361933194,37.47222222222222
-11880870.805614963,4188791.626009319,36.87222222222223
-11880870.99114745,4188798.8900902094,36.87222222222223
-11880871.547744902,4188806.3811786193,37.37222222222222
-11880871.547744902,4188820.9093645345,36.97222222222222
-11880871.733277388,4188835.664572869,36.666666666666664
-11880871.733277388,4188842.9286826593,36.666666666666664
-11880871.733277388,4188850.192797217,37.36666666666667
-11880871.91880987,4188857.6839203467,37.36666666666667
-11880872.104342356,4188872.666181815,36.666666666666664
-11880871.91880987,4188880.157320155,36.666666666666664
-11880871.91880987,4188887.421459142,36.666666666666664
-11880871.733277388,4188894.4585983325,36.96666666666667
-11880871.176679933,4188901.7227467056,36.96666666666667
-11880871.176679933,4188908.5328901354,36.96666666666667
-11880870.99114745,4188915.3430377548,36.96666666666667
-11880870.99114745,4188922.1531895627,36.666666666666664
-11880870.805614963,4188929.417356111,36.666666666666664
-11880870.99114745,4188936.681527426,36.76666666666667
-11880870.99114745,4188943.718697933,36.76666666666667
-11880870.805614963,4188950.982878633,36.56666666666666
-11880870.434549995,4188965.511254335,36.56666666666666
-11880870.434549995,4188973.002455507,36.46666666666667
-11880870.434549995,4188980.039649106,36.46666666666667
-11880870.249017509,4188987.3038536417,36.46666666666667
-11880870.063485024,4188994.341056332,36.46666666666667
-11880870.063485024,4189001.832277015,36.166666666666664
-11880870.063485024,4189001.832277015,36.166666666666664
-11880870.249017509,4189017.268747743,36.166666666666664
-11880870.434549995,4189024.7599839442,36.166666666666664
-11880870.620082477,4189032.251225213,36.266666666666666
-11880870.99114745,4189039.742471555,36.266666666666666
-11880871.547744902,4189054.4979715967,36.46666666666667
-11880871.547744902,4189061.989232993,36.36666666666666
-11880871.547744902,4189069.4804994585,36.36666666666666
-11880871.547744902,4189077.1987793036,36.666666666666664
-11880871.547744902,4189084.9170645284,36.666666666666664
-11880871.733277388,4189092.408346511,36.666666666666664
-11880871.91880987,4189100.126642342,36.666666666666664
-11880872.104342356,4189107.6179346186,36.56666666666666
-11880872.28987484,4189115.336241056,36.56666666666666
-11880872.475407327,4189122.827543628,36.166666666666664
-11880872.660939809,4189130.3188512684,36.166666666666664
-11880872.846472295,4189137.583154428,36.266666666666666
-11880872.846472295,4189144.62045266,36.266666666666666
-11880872.660939809,4189158.922072533,36.56666666666666
-11880872.475407327,4189166.413404602,36.56666666666666
-11880872.28987484,4189174.131752036,36.166666666666664
-11880872.475407327,4189181.396083952,36.166666666666664
-11880872.475407327,4189188.660420633,36.56666666666666
-11880872.475407327,4189195.697751341,36.56666666666666
-11880872.660939809,4189203.1891082996,36.666666666666664
-11880872.846472295,4189210.453459285,36.66111111111111
-11880872.660939809,4189217.944826232,36.861111111111114
-11880872.475407327,4189225.2091869,36.861111111111114
-11880872.475407327,4189232.700563832,36.46111111111111
